,0
0,0.006818109699833936
1,0.009998096884418075
2,0.014433938347815494
3,0.020514762795251093
4,0.02870531402594138
5,0.03954324026106666
6,0.05362858688578743
7,0.07160355784640489
8,0.09412110116010126
9,0.12180175491295143
10,0.15517946150437747
11,0.1946386501468985
12,0.24034665170370892
13,0.2921872206225148
14,0.3497023147611276
15,0.41205002559445264
16,0.4779863919318106
17,0.5458775937413701
18,0.6137466760713134
19,0.6793556417901065
20,0.7403198061587981
21,0.7942472123261359
22,0.8388922431235747
23,0.8723099110287096
24,0.8929961444342192
25,0.9
26,0.8929961444342192
27,0.8723099110287097
28,0.8388922431235748
29,0.7942472123261359
30,0.7403198061587983
31,0.6793556417901068
32,0.6137466760713134
33,0.5458775937413701
34,0.4779863919318106
35,0.41205002559445264
36,0.3497023147611275
37,0.29218722062251495
38,0.2403466517037091
39,0.1946386501468986
40,0.15517946150437753
41,0.12180175491295142
42,0.0941211011601011
43,0.07160355784640263
44,0.05362858688575969
45,0.0395432402607552
46,0.028705314022773074
47,0.02051476276593733
48,0.014433938101100005
49,0.00999809499553907
50,0.0068180965447019294
51,0.004577378964813363
52,0.00302503752272138
53,0.0019662239318063626
54,0.0012492148570248205
55,0.0007433480839549849
56,0.00028831683282136867
57,-0.00043610141453910117
58,-0.0022283465155817817
59,-0.007051574991143759
60,-0.019283188682434005
61,-0.047519215475599834
62,-0.10631790221494924
63,-0.21629184596040088
64,-0.4002296318583026
65,-0.6736565487613566
66,-1.0313599916219138
67,-1.435968006402471
68,-1.817142058828424
69,-2.0862576156202657
70,-2.1613927729398243
71,-1.9874000103160168
72,-1.5355776274896695
73,-0.7819296838422206
74,0.3146452781080266
75,1.8004789517667215
76,3.663325108240043
77,5.742663902892382
78,7.6847313360759095
79,9.011796895845785
80,9.306956870596565
81,8.420887145139039
82,6.568159073774138
83,4.24407398008894
84,2.012632947334584
85,0.29347011874912465
86,-0.7449434211024257
87,-1.1632115483750733
88,-1.1511498860556315
89,-0.9204576153543085
90,-0.6350366490201123
91,-0.3882018434917197
92,-0.21294642256565774
93,-0.10549700532213965
94,-0.04736105948871512
95,-0.01929716437906404
96,-0.007135105056500613
97,-0.002382762804002721
98,-0.0006987834555393973
99,-0.00014770602546949416
100,3.297374902401343e-05
101,0.00011219403091782578
102,0.00017756901483820885
103,0.0002588295617183191
104,0.00037071659612960753
105,0.0005265425422166164
106,0.0007425606643493057
107,0.001039933899782307
108,0.0014463143332205746
109,0.0019975774405943517
110,0.002739861551187146
111,0.0037319659839395716
112,0.005048133149545496
113,0.006781222466366784
114,0.009046263820142923
115,0.011984352432365725
116,0.015766814616139414
117,0.020599534976498392
118,0.026727290733728596
119,0.034437889268551215
120,0.044065852740884655
121,0.055995341601321955
122,0.07066196073919824
123,0.08855305243210616
124,0.11020605435582145
125,0.136204494232563
126,0.1671712107949309
127,0.20375843871124455
128,0.24663447702650593
129,0.2964667789808699
130,0.35390145603002987
131,0.41953937803349983
132,0.4939092692915682
133,0.5774384374628736
134,0.6704220171726515
135,0.7729918472096193
136,0.8850863122787905
137,1.0064226488108858
138,1.1364733209283908
139,1.2744481005722832
140,1.4192834214920065
141,1.5696404116091143
142,1.7239127396969496
143,1.8802450451091663
144,2.036562265912735
145,2.1906096613589194
146,2.340002766165922
147,2.482285949042104
148,2.6149977120991266
149,2.7357403980122452
150,2.8422516027692892
151,2.932474353610973
152,3.0046230268766667
153,3.0572420619061402
154,3.0892547768081444
155,3.1
156,3.0892547768081444
157,3.0572420619061402
158,3.0046230268766667
159,2.932474353610973
160,2.8422516027692892
161,2.7357403980122452
162,2.6149977120991266
163,2.482285949042104
164,2.340002766165922
165,2.1906096613589194
166,2.0365622659127305
167,1.880245045109162
168,1.7239127396969451
169,1.56964041160911
170,1.4192834214920025
171,1.274448100572279
172,1.1364733209283868
173,1.006422648810882
174,0.8850863122787874
175,0.7729918472096164
176,0.6704220171726515
177,0.5774384374628736
178,0.4939092692915682
179,0.41953937803349983
180,0.35390145603002987
181,0.2964667789808699
182,0.24663447702650593
183,0.20375843871124455
184,0.1671712107949309
185,0.136204494232563
186,0.11020605435582145
187,0.08855305243210616
188,0.07066196073919824
189,0.055995341601321955
190,0.044065852740884655
191,0.034437889268551125
192,0.026727290733728502
193,0.02059953497649832
194,0.01576681461613934
195,0.011984352432365671
196,0.009046263820142895
197,0.006781222466366927
198,0.00504813314954774
199,0.0037319659839674165
200,0.002739861551498645
201,0.0019975774437626785
202,0.0014463143625343651
203,0.0010399341464977837
204,0.0007425625532278601
205,0.0005265556973403917
206,0.0003707999391012367
207,0.0002593098764123377
208,0.00018008706839353874
209,0.00012420242191964358
210,8.506710769420252e-05
211,5.7859854263311615e-05
212,3.908202607959175e-05
213,2.6215664584600953e-05
214,1.746339762238815e-05
215,1.155262538261818e-05
216,7.589562619851829e-06
217,4.951502907674836e-06
218,3.208056578118448e-06
219,2.0641126632693787e-06
220,1.3189170341057651e-06
221,8.369842760824391e-07
222,5.276140713093009e-07
223,3.3060875649157314e-07
224,2.064302641325683e-07
225,1.295322599746931e-07
226,8.399549442306042e-08
227,6.091991897885049e-08
228,5.7328698746829743e-08
229,7.66695196724167e-08
230,1.3142878573473408e-07
231,2.490063454393273e-07
232,4.829808149395154e-07
233,9.334431816867503e-07
234,1.7824921556324396e-06
235,3.354680280616069e-06
236,6.217707179032864e-06
237,1.1346619457070462e-05
238,2.03859056034874e-05
239,3.605883863543662e-05
240,6.279265894942799e-05
241,0.00010765161702199966
242,0.00018169648099610635
243,0.0003019163716235295
244,0.0004939022136105692
245,0.0007954436781331454
246,0.001261223478005845
247,0.001968742006899076
248,0.003025517839420195
249,0.004577462308058319
250,0.006818109699910156
251,0.009998096884457361
252,0.014433938347835618
253,0.020514762795261373
254,0.028705314025946626
255,0.03954324026106938
256,0.05362858688578893
257,0.07160355784640578
258,0.09412110116010196
259,0.12180175491295199
260,0.1551794615043781
261,0.19463865014689927
262,0.2403466517037098
263,0.2921872206225157
264,0.3497023147611288
265,0.41205002559445403
266,0.477986391931812
267,0.5458775937413715
268,0.6137466760713147
269,0.679355641790108
270,0.7403198061587994
271,0.7942472123261372
272,0.8388922431235758
273,0.8723099110287105
274,0.8929961444342196
275,0.9
276,0.8929961444342192
277,0.8723099110287096
278,0.8388922431235747
279,0.7942472123261357
280,0.7403198061587979
281,0.6793556417901063
282,0.613746676071313
283,0.5458775937413696
284,0.4779863919318102
285,0.41205002559445225
286,0.34970231476112706
287,0.2921872206225142
288,0.24034665170370842
289,0.19463865014690038
290,0.15517946150437903
291,0.12180175491295264
292,0.09412110116010214
293,0.07160355784640345
294,0.053628586885760235
295,0.039543240260755626
296,0.028705314022773404
297,0.020514762765937566
298,0.014433938101100184
299,0.009998094995539195
300,0.0068180965447020205
301,0.004577378964813429
302,0.0030250375227214256
303,0.001966223931806387
304,0.0012492148570248352
305,0.0007433480839549959
306,0.00028831683282137653
307,-0.00043610141453909065
308,-0.0022283465155817596
309,-0.007051574991143706
310,-0.019283188682434
311,-0.047519215475599834
312,-0.10631790221494924
313,-0.21629184596040088
314,-0.4002296318583026
315,-0.6736565487613566
316,-1.0313599916219138
317,-1.435968006402471
318,-1.817142058828424
319,-2.086257615620266
320,-2.1613927729398252
321,-1.9874000103160183
322,-1.5355776274896733
323,-0.7819296838422148
324,0.31464527810803194
325,1.8004789517667261
326,3.663325108240046
327,5.742663902892383
328,7.68473133607591
329,9.011796895845785
330,9.306956870596567
331,8.420887145139039
332,6.568159073774138
333,4.24407398008894
334,2.012632947334584
335,0.29347011874912465
336,-0.7449434211024257
337,-1.1632115483750733
338,-1.1511498860556295
339,-0.9204576153543047
340,-0.6350366490201083
341,-0.3882018434917168
342,-0.2129464225656558
343,-0.10549700532213853
344,-0.047361059488714566
345,-0.019297164379063786
346,-0.007135105056500506
347,-0.0023827628040026818
348,-0.0006987834555393834
349,-0.0001477060254694899
350,3.297374902401541e-05
351,0.00011219403091782738
352,0.0001775690148382068
353,0.0002588295617183163
354,0.0003707165961296042
355,0.0005265425422166146
356,0.0007425606643493031
357,0.0010399338997823017
358,0.0014463143332205668
359,0.0019975774405943426
360,0.002739861551187134
361,0.0037319659839395555
362,0.005048133149545474
363,0.006781222466366759
364,0.009046263820142883
365,0.011984352432365671
366,0.01576681461613934
367,0.02059953497649832
368,0.026727290733728502
369,0.034437889268551125
370,0.044065852740884655
371,0.055995341601321955
372,0.07066196073919824
373,0.08855305243210616
374,0.11020605435582145
375,0.136204494232563
376,0.1671712107949309
377,0.20375843871124455
378,0.24663447702650593
379,0.2964667789808699
380,0.35390145603002987
381,0.41953937803349983
382,0.4939092692915682
383,0.5774384374628736
384,0.6704220171726515
385,0.7729918472096193
386,0.8850863122787905
387,1.0064226488108858
388,1.1364733209283908
389,1.2744481005722832
390,1.4192834214920065
391,1.5696404116091143
392,1.7239127396969496
393,1.8802450451091663
394,2.036562265912735
395,2.1906096613589234
396,2.340002766165926
397,2.4822859490421076
398,2.6149977120991297
399,2.7357403980122483
400,2.8422516027692923
401,2.9324743536109747
402,3.004623026876668
403,3.0572420619061416
404,3.089254776808145
405,3.1
406,3.0892547768081444
407,3.0572420619061402
408,3.0046230268766667
409,2.932474353610973
410,2.8422516027692892
411,2.7357403980122452
412,2.6149977120991266
413,2.482285949042104
414,2.340002766165922
415,2.1906096613589194
416,2.0365622659127305
417,1.880245045109162
418,1.7239127396969451
419,1.56964041160911
420,1.4192834214920025
421,1.274448100572279
422,1.1364733209283868
423,1.006422648810882
424,0.8850863122787874
425,0.7729918472096164
426,0.6704220171726488
427,0.5774384374628712
428,0.4939092692915661
429,0.41953937803349783
430,0.35390145603002815
431,0.2964667789808685
432,0.2466344770265047
433,0.20375843871124358
434,0.16717121079493003
435,0.13620449423256228
436,0.11020605435582081
437,0.0885530524321056
438,0.07066196073919784
439,0.05599534160132156
440,0.04406585274088434
441,0.034437889268550875
442,0.02672729073372831
443,0.02059953497649817
444,0.015766814616139234
445,0.011984352432365586
446,0.009046263820142824
447,0.006781222466366871
448,0.0050481331495477
449,0.003731965983967386
450,0.002739861551498618
451,0.0019975774437626607
452,0.0014463143625343523
453,0.0010399341464977744
454,0.0007425625532278535
455,0.0005265556973403861
456,0.00037079993910123276
457,0.00025930987641233544
458,0.00018008706839353682
459,0.00012420242191964117
460,8.50671076942007e-05
461,5.785985426331049e-05
462,3.908202607959085e-05
463,2.6215664584600394e-05
464,1.7463397622387746e-05
465,1.1552625382617935e-05
466,7.5895626198516545e-06
467,4.9515029076747215e-06
468,3.2080565781183687e-06
469,2.0641126632693236e-06
470,1.3189170341057323e-06
471,8.369842760824198e-07
472,5.276140713092878e-07
473,3.3060875649156377e-07
474,2.0643026413256246e-07
475,1.295322599746895e-07
476,8.399549442305821e-08
477,6.091991897884915e-08
478,5.7328698746828936e-08
479,7.66695196724162e-08
480,1.314287857347294e-07
481,2.49006345439318e-07
482,4.829808149394976e-07
483,9.334431816867155e-07
484,1.7824921556323765e-06
485,3.3546802806159495e-06
486,6.2177071790326545e-06
487,1.1346619457070077e-05
488,2.0385905603486748e-05
489,3.605883863543554e-05
490,6.279265894942698e-05
491,0.00010765161702199814
492,0.0001816964809961041
493,0.00030191637162352465
494,0.0004939022136105626
495,0.0007954436781331354
496,0.0012612234780058295
497,0.001968742006899053
498,0.0030255178394201603
499,0.004577462308058266
500,0.006818109699910082
501,0.009998096884457255
502,0.014433938347835478
503,0.020514762795261172
504,0.02870531402594636
505,0.03954324026106903
506,0.053628586885788476
507,0.07160355784640524
508,0.09412110116010124
509,0.12180175491295109
510,0.15517946150437711
511,0.19463865014689807
512,0.24034665170370845
513,0.2921872206225142
514,0.34970231476112706
515,0.41205002559445225
516,0.4779863919318102
517,0.5458775937413696
518,0.613746676071313
519,0.6793556417901063
520,0.7403198061587979
521,0.7942472123261357
522,0.8388922431235747
523,0.8723099110287096
524,0.8929961444342192
525,0.9
526,0.8929961444342192
527,0.8723099110287096
528,0.8388922431235747
529,0.7942472123261357
530,0.7403198061587979
531,0.6793556417901063
532,0.613746676071313
533,0.5458775937413696
534,0.4779863919318102
535,0.41205002559445225
536,0.34970231476112706
537,0.2921872206225142
538,0.24034665170370842
539,0.19463865014689805
540,0.15517946150437703
541,0.12180175491295092
542,0.09412110116010076
543,0.07160355784640234
544,0.05362858688575933
545,0.03954324026075494
546,0.02870531402277288
547,0.020514762765937174
548,0.014433938101099903
549,0.009998094995538992
550,0.006818096544701875
551,0.0045773789648133265
552,0.0030250375227213536
553,0.0019662239318063396
554,0.001249214857024804
555,0.0007433480839549714
556,0.0002883168328213489
557,-0.0004361014145391512
558,-0.0022283465155819165
559,-0.007051574991144123
560,-0.019283188682435014
561,-0.04751921547560206
562,-0.10631790221495374
563,-0.21629184596040885
564,-0.40022963185831517
565,-0.6736565487613745
566,-1.0313599916219356
567,-1.4359680064024936
568,-1.817142058828443
569,-2.086257615620276
570,-2.1613927729398226
571,-1.9874000103159901
572,-1.535577627489659
573,-0.7819296838421413
574,0.31464527810808196
575,1.8004789517668371
576,3.6633251082401452
577,5.74266390289226
578,7.684731336075821
579,9.011796895845738
580,9.306956870596583
581,8.42088714513906
582,6.568159073774161
583,4.2440739800889595
584,2.012632947334595
585,0.29347011874912465
586,-0.7449434211024257
587,-1.1632115483750733
588,-1.1511498860556295
589,-0.9204576153543047
590,-0.6350366490201083
591,-0.3882018434917168
592,-0.2129464225656558
593,-0.10549700532213853
594,-0.047361059488714566
595,-0.019297164379063786
596,-0.007135105056500507
597,-0.0023827628040026826
598,-0.0006987834555393846
599,-0.00014770602546949164
600,3.297374902401254e-05
601,0.00011219403091782364
602,0.00017756901483820508
603,0.00025882956171831403
604,0.00037071659612960027
605,0.000526542542216609
606,0.0007425606643492965
607,0.0010399338997822923
608,0.001446314333220554
609,0.001997577440594325
610,0.002739861551187107
611,0.003731965983939525
612,0.005048133149545434
613,0.006781222466366704
614,0.009046263820142812
615,0.011984352432365586
616,0.015766814616139234
617,0.02059953497649817
618,0.02672729073372831
619,0.034437889268550875
620,0.04406585274088434
621,0.05599534160132156
622,0.07066196073919784
623,0.0885530524321056
624,0.11020605435582081
625,0.13620449423256228
626,0.16717121079493003
627,0.20375843871124358
628,0.2466344770265047
629,0.2964667789808685
630,0.35390145603002815
631,0.41953937803349783
632,0.4939092692915661
633,0.5774384374628712
634,0.6704220171726488
635,0.7729918472096164
636,0.8850863122787874
637,1.006422648810882
638,1.1364733209283868
639,1.274448100572279
640,1.4192834214920025
641,1.56964041160911
642,1.7239127396969451
643,1.880245045109162
644,2.0365622659127305
645,2.1906096613589194
646,2.340002766165922
647,2.482285949042104
648,2.6149977120991266
649,2.7357403980122452
650,2.8422516027692892
651,2.932474353610973
652,3.0046230268766667
653,3.0572420619061402
654,3.0892547768081444
655,3.1
656,3.0892547768081444
657,3.0572420619061402
658,3.0046230268766667
659,2.932474353610973
660,2.8422516027692892
661,2.7357403980122452
662,2.6149977120991266
663,2.482285949042104
664,2.340002766165922
665,2.1906096613589194
666,2.0365622659127305
667,1.880245045109162
668,1.7239127396969451
669,1.56964041160911
670,1.4192834214920025
671,1.274448100572279
672,1.1364733209283868
673,1.006422648810882
674,0.8850863122787874
675,0.7729918472096164
676,0.6704220171726488
677,0.5774384374628712
678,0.4939092692915661
679,0.41953937803349783
680,0.35390145603002815
681,0.2964667789808685
682,0.2466344770265047
683,0.20375843871124358
684,0.16717121079493003
685,0.13620449423256228
686,0.11020605435582081
687,0.0885530524321056
688,0.07066196073919784
689,0.05599534160132156
690,0.04406585274088434
691,0.034437889268550875
692,0.02672729073372831
693,0.02059953497649817
694,0.015766814616139234
695,0.011984352432365586
696,0.009046263820142824
697,0.006781222466366871
698,0.0050481331495477
699,0.003731965983967386
700,0.002739861551498618
701,0.0019975774437626607
702,0.0014463143625343523
703,0.0010399341464977744
704,0.0007425625532278813
705,0.0005265556973404066
706,0.0003707999391012473
707,0.0002593098764123455
708,0.00018008706839354416
709,0.00012420242191964624
710,8.506710769420433e-05
711,5.7859854263312964e-05
712,3.9082026079592515e-05
713,2.6215664584601512e-05
714,1.746339762238852e-05
715,1.1552625382618469e-05
716,7.589562619852005e-06
717,4.951502907674951e-06
718,3.208056578118522e-06
719,2.06411266326943e-06
720,1.3189170341058003e-06
721,8.369842760824628e-07
722,5.27614071309315e-07
723,3.3060875649158246e-07
724,2.0643026413257258e-07
725,1.2953225997469612e-07
726,8.399549442306205e-08
727,6.091991897885124e-08
728,5.732869874682923e-08
729,7.666951967241486e-08
730,1.314287857347294e-07
731,2.49006345439318e-07
732,4.829808149394976e-07
733,9.334431816867155e-07
734,1.7824921556323765e-06
735,3.3546802806159495e-06
736,6.2177071790326545e-06
737,1.1346619457070077e-05
738,2.0385905603486748e-05
739,3.605883863543554e-05
740,6.279265894942698e-05
741,0.00010765161702199814
742,0.0001816964809961041
743,0.00030191637162352465
744,0.0004939022136105626
745,0.0007954436781331354
746,0.0012612234780058295
747,0.001968742006899053
748,0.0030255178394201603
749,0.004577462308058266
750,0.006818109699910082
751,0.009998096884457255
752,0.014433938347835478
753,0.020514762795261172
754,0.02870531402594636
755,0.03954324026106903
756,0.053628586885788476
757,0.07160355784640524
758,0.09412110116010124
759,0.12180175491295109
760,0.15517946150437711
761,0.19463865014689807
762,0.24034665170370845
763,0.2921872206225142
764,0.34970231476112706
765,0.41205002559445225
766,0.4779863919318102
767,0.5458775937413696
768,0.613746676071313
769,0.6793556417901063
770,0.7403198061587979
771,0.7942472123261357
772,0.8388922431235747
773,0.8723099110287096
774,0.8929961444342192
775,0.9
776,0.8929961444342192
777,0.8723099110287096
778,0.8388922431235747
779,0.7942472123261357
780,0.7403198061587979
781,0.6793556417901063
782,0.613746676071313
783,0.5458775937413696
784,0.4779863919318102
785,0.41205002559445225
786,0.34970231476112706
787,0.2921872206225142
788,0.24034665170370842
789,0.19463865014689805
790,0.15517946150437703
791,0.12180175491295092
792,0.09412110116010076
793,0.07160355784640234
794,0.05362858688575933
795,0.03954324026075494
796,0.02870531402277288
797,0.020514762765937174
798,0.014433938101099903
799,0.009998094995538992
800,0.006818096544701875
801,0.0045773789648133265
802,0.0030250375227213536
803,0.001966223931806339
804,0.0012492148570248049
805,0.0007433480839549672
806,0.00028831683282136384
807,-0.0004361014145392011
808,-0.0022283465155817648
809,-0.007051574991144536
810,-0.019283188682434005
811,-0.047519215475604316
812,-0.10631790221494924
813,-0.2162918459604167
814,-0.4002296318583026
815,-0.673656548761392
816,-1.0313599916219138
817,-1.4359680064025162
818,-1.8171420588284235
819,-2.086257615620286
820,-2.1613927729398204
821,-1.987400010315984
822,-1.535577627489645
823,-0.7819296838421133
824,0.3146452781081315
825,1.800478951766913
826,3.6633251082402443
827,5.742663902892615
828,7.684731336076093
829,9.011796895845883
830,9.306956870596531
831,8.420887145138881
832,6.568159073773896
833,4.24407398008894
834,2.012632947334584
835,0.29347011874912465
836,-0.7449434211024257
837,-1.1632115483750733
838,-1.1511498860556295
839,-0.9204576153543047
840,-0.6350366490201083
841,-0.3882018434917168
842,-0.2129464225656558
843,-0.10549700532213853
844,-0.047361059488714566
845,-0.019297164379063786
846,-0.007135105056500507
847,-0.0023827628040026826
848,-0.0006987834555393846
849,-0.00014770602546949164
850,3.297374902401254e-05
851,0.00011219403091782364
852,0.00017756901483820508
853,0.00025882956171831403
854,0.00037071659612960027
855,0.000526542542216609
856,0.0007425606643492965
857,0.0010399338997822923
858,0.001446314333220554
859,0.001997577440594325
860,0.002739861551187107
861,0.003731965983939525
862,0.005048133149545434
863,0.006781222466366704
864,0.009046263820142812
865,0.011984352432365586
866,0.015766814616139234
867,0.02059953497649817
868,0.02672729073372831
869,0.034437889268550875
870,0.04406585274088434
871,0.05599534160132156
872,0.07066196073919784
873,0.0885530524321056
874,0.11020605435582081
875,0.13620449423256228
876,0.16717121079493003
877,0.20375843871124358
878,0.2466344770265047
879,0.2964667789808685
880,0.35390145603002815
881,0.41953937803349783
882,0.4939092692915661
883,0.5774384374628712
884,0.6704220171726488
885,0.7729918472096164
886,0.8850863122787874
887,1.006422648810882
888,1.1364733209283868
889,1.274448100572279
890,1.4192834214920025
891,1.56964041160911
892,1.7239127396969451
893,1.880245045109162
894,2.0365622659127305
895,2.1906096613589194
896,2.340002766165922
897,2.482285949042104
898,2.6149977120991266
899,2.7357403980122452
900,2.8422516027692892
901,2.932474353610973
902,3.0046230268766667
903,3.0572420619061402
904,3.0892547768081444
905,3.1
906,3.0892547768081444
907,3.0572420619061402
908,3.0046230268766667
909,2.932474353610973
910,2.8422516027692892
911,2.7357403980122452
912,2.6149977120991266
913,2.482285949042104
914,2.340002766165922
915,2.1906096613589194
916,2.0365622659127305
917,1.880245045109162
918,1.7239127396969451
919,1.56964041160911
920,1.4192834214920025
921,1.274448100572279
922,1.1364733209283868
923,1.006422648810882
924,0.8850863122787874
925,0.7729918472096164
926,0.6704220171726488
927,0.5774384374628712
928,0.4939092692915661
929,0.41953937803349783
930,0.35390145603002815
931,0.2964667789808685
932,0.2466344770265047
933,0.20375843871124358
934,0.16717121079493003
935,0.13620449423256228
936,0.11020605435582081
937,0.0885530524321056
938,0.07066196073919784
939,0.05599534160132156
940,0.04406585274088434
941,0.034437889268550875
942,0.02672729073372831
943,0.02059953497649817
944,0.015766814616139234
945,0.011984352432365586
946,0.009046263820142824
947,0.006781222466366871
948,0.0050481331495477
949,0.003731965983967386
950,0.002739861551498618
951,0.0019975774437626607
952,0.0014463143625343523
953,0.0010399341464977744
954,0.0007425625532278535
955,0.0005265556973403861
956,0.00037079993910123276
957,0.00025930987641233544
958,0.00018008706839353682
959,0.00012420242191964117
960,8.506710769420433e-05
961,5.7859854263312964e-05
962,3.9082026079592515e-05
963,2.6215664584601512e-05
964,1.746339762238852e-05
965,1.1552625382618469e-05
966,7.589562619852005e-06
967,4.951502907674951e-06
968,3.208056578118522e-06
969,2.06411266326943e-06
970,1.3189170341058003e-06
971,8.369842760824628e-07
972,5.27614071309315e-07
973,3.3060875649158246e-07
974,2.0643026413257258e-07
975,1.2953225997469612e-07
976,8.399549442306205e-08
977,6.091991897885124e-08
978,5.732869874682923e-08
979,7.666951967241486e-08
980,1.314287857347294e-07
981,2.49006345439318e-07
982,4.829808149394976e-07
983,9.334431816867155e-07
984,1.7824921556323765e-06
985,3.3546802806159495e-06
986,6.2177071790326545e-06
987,1.1346619457070077e-05
988,2.0385905603486748e-05
989,3.605883863543554e-05
990,6.279265894942698e-05
991,0.00010765161702199814
992,0.0001816964809961041
993,0.00030191637162352465
994,0.0004939022136105626
995,0.0007954436781331354
996,0.0012612234780058295
997,0.001968742006899053
998,0.0030255178394201603
999,0.004577462308058266
1000,0.006818109699910082
1001,0.009998096884457672
1002,0.014433938347835478
1003,0.020514762795261956
1004,0.02870531402594636
1005,0.039543240261070395
1006,0.053628586885788476
1007,0.07160355784640746
1008,0.09412110116010124
1009,0.12180175491295453
1010,0.15517946150437711
1011,0.1946386501469028
1012,0.24034665170370845
1013,0.2921872206225203
1014,0.34970231476112706
1015,0.4120500255944594
1016,0.4779863919318102
1017,0.5458775937413772
1018,0.613746676071313
1019,0.6793556417901133
1020,0.7403198061587979
1021,0.7942472123261413
1022,0.8388922431235747
1023,0.8723099110287126
1024,0.8929961444342192
1025,0.9
1026,0.8929961444342176
1027,0.8723099110287096
1028,0.8388922431235704
1029,0.7942472123261357
1030,0.7403198061587914
1031,0.6793556417901063
1032,0.6137466760713054
1033,0.5458775937413696
1034,0.4779863919318027
1035,0.41205002559445225
1036,0.3497023147611204
1037,0.2921872206225142
1038,0.24034665170370303
1039,0.19463865014689805
1040,0.155179461504373
1041,0.12180175491295092
1042,0.09412110116009796
1043,0.07160355784640234
1044,0.05362858688575757
1045,0.03954324026075494
1046,0.028705314022771836
1047,0.020514762765937174
1048,0.014433938101099325
1049,0.009998094995538992
1050,0.006818096544701578
1051,0.0045773789648133265
1052,0.003025037522721211
1053,0.00196622393180634
1054,0.0012492148570247411
1055,0.0007433480839549836
1056,0.00028831683282133717
1057,-0.00043610141453899974
1058,-0.0022283465155817756
1059,-0.007051574991142884
1060,-0.01928318868243401
1061,-0.04751921547559532
1062,-0.10631790221494924
1063,-0.21629184596038503
1064,-0.4002296318583026
1065,-0.6736565487613213
1066,-1.0313599916219138
1067,-1.4359680064024256
1068,-1.8171420588284235
1069,-2.086257615620244
1070,-2.1613927729398204
1071,-1.98740001031604
1072,-1.535577627489645
1073,-0.7819296838422601
1074,0.3146452781081315
1075,1.8004789517666908
1076,3.6633251082402443
1077,5.742663902892367
1078,7.684731336076093
1079,9.011796895845782
1080,9.306956870596531
1081,8.420887145139156
1082,6.568159073774093
1083,4.244073980089165
1084,2.0126329473345623
1085,0.2934701187492783
1086,-0.7449434211024035
1087,-1.1632115483750165
1088,-1.1511498860555842
1089,-0.9204576153542924
1090,-0.635036649020073
1091,-0.38820184349171516
1092,-0.21294642256563995
1093,-0.10549700532213839
1094,-0.04736105948871005
1095,-0.01929716437906378
1096,-0.00713510505649968
1097,-0.0023827628040026826
1098,-0.0006987834555392832
1099,-0.00014770602546949164
1100,3.297374902402441e-05
1101,0.00011219403091782364
1102,0.0001775690148382129
1103,0.00025882956171831403
1104,0.00037071659612961485
1105,0.000526542542216609
1106,0.0007425606643493242
1107,0.0010399338997822923
1108,0.0014463143332206067
1109,0.001997577440594325
1110,0.002739861551187202
1111,0.003731965983939525
1112,0.0050481331495456
1113,0.006781222466366704
1114,0.009046263820143102
1115,0.011984352432365586
1116,0.015766814616139692
1117,0.02059953497649817
1118,0.02672729073372907
1119,0.034437889268550875
1120,0.044065852740885515
1121,0.05599534160132156
1122,0.07066196073919959
1123,0.0885530524321056
1124,0.11020605435582341
1125,0.13620449423256228
1126,0.16717121079493374
1127,0.20375843871124358
1128,0.24663447702650987
1129,0.2964667789808685
1130,0.35390145603003503
1131,0.41953937803349783
1132,0.4939092692915747
1133,0.5774384374628712
1134,0.6704220171726597
1135,0.7729918472096164
1136,0.8850863122788005
1137,1.006422648810882
1138,1.136473320928402
1139,1.274448100572279
1140,1.4192834214920187
1141,1.56964041160911
1142,1.7239127396969625
1143,1.880245045109162
1144,2.036562265912748
1145,2.1906096613589194
1146,2.340002766165938
1147,2.482285949042104
1148,2.6149977120991403
1149,2.7357403980122452
1150,2.8422516027693003
1151,2.932474353610973
1152,3.0046230268766734
1153,3.0572420619061402
1154,3.0892547768081418
1155,3.1
1156,3.0892547768081466
1157,3.0572420619061402
1158,3.0046230268766734
1159,2.932474353610973
1160,2.8422516027693003
1161,2.7357403980122452
1162,2.6149977120991403
1163,2.482285949042104
1164,2.340002766165938
1165,2.1906096613589194
1166,2.036562265912748
1167,1.880245045109162
1168,1.7239127396969625
1169,1.56964041160911
1170,1.4192834214920187
1171,1.274448100572279
1172,1.136473320928402
1173,1.006422648810882
1174,0.8850863122788005
1175,0.7729918472096164
1176,0.6704220171726597
1177,0.5774384374628712
1178,0.4939092692915747
1179,0.41953937803349783
1180,0.35390145603003503
1181,0.2964667789808685
1182,0.24663447702650987
1183,0.20375843871124358
1184,0.16717121079493374
1185,0.13620449423256228
1186,0.11020605435582341
1187,0.0885530524321056
1188,0.07066196073919959
1189,0.05599534160132156
1190,0.044065852740885515
1191,0.034437889268550875
1192,0.02672729073372907
1193,0.02059953497649817
1194,0.015766814616139692
1195,0.011984352432365586
1196,0.009046263820143114
1197,0.006781222466366871
1198,0.005048133149547866
1199,0.003731965983967386
1200,0.002739861551498713
1201,0.0019975774437626607
1202,0.001446314362534405
1203,0.0010399341464977744
1204,0.0007425625532278813
1205,0.0005265556973403861
1206,0.0003707999391012473
1207,0.00025930987641233544
1208,0.00018008706839354416
1209,0.00012420242191964117
1210,8.506710769420433e-05
1211,5.785985426331049e-05
1212,3.9082026079592515e-05
1213,2.6215664584600394e-05
1214,1.746339762238852e-05
1215,1.1552625382617935e-05
1216,7.589562619852005e-06
1217,4.9515029076747215e-06
1218,3.208056578118522e-06
1219,2.0641126632693236e-06
1220,1.3189170341058003e-06
1221,8.369842760824198e-07
1222,5.27614071309315e-07
1223,3.306087564915638e-07
1224,2.0643026413257268e-07
1225,1.295322599746899e-07
1226,8.39954944230626e-08
1227,6.091991897885086e-08
1228,5.7328698746831576e-08
1229,7.666951967242318e-08
1230,1.3142878573473884e-07
1231,2.490063454393548e-07
1232,4.829808149395335e-07
1233,9.334431816868512e-07
1234,1.782492155632503e-06
1235,3.354680280616414e-06
1236,6.217707179033063e-06
1237,1.134661945707159e-05
1238,2.0385905603488086e-05
1239,3.6058838635440016e-05
1240,6.279265894943089e-05
1241,0.00010765161702201076
1242,0.0001816964809961141
1243,0.0003019163716235587
1244,0.0004939022136105889
1245,0.000795443678133218
1246,0.0012612234780058921
1247,0.0019687420068992437
1248,0.003025517839420302
1249,0.004577462308058682
1250,0.00681810969991038
1251,0.00999809688445809
1252,0.014433938347836043
1253,0.02051476279526274
1254,0.028705314025947407
1255,0.03954324026107177
1256,0.05362858688579026
1257,0.07160355784640969
1258,0.094121101160104
1259,0.12180175491295789
1260,0.15517946150438117
1261,0.1946386501469075
1262,0.2403466517037139
1263,0.29218722062252633
1264,0.3497023147611338
1265,0.4120500255944666
1266,0.4779863919318176
1267,0.5458775937413848
1268,0.6137466760713204
1269,0.6793556417901204
1270,0.7403198061588043
1271,0.7942472123261467
1272,0.8388922431235791
1273,0.8723099110287157
1274,0.8929961444342207
1275,0.9
1276,0.8929961444342176
1277,0.8723099110287036
1278,0.8388922431235704
1279,0.7942472123261246
1280,0.7403198061587914
1281,0.6793556417901063
1282,0.6137466760713054
1283,0.5458775937413696
1284,0.4779863919318027
1285,0.41205002559445225
1286,0.3497023147611204
1287,0.2921872206225142
1288,0.24034665170370303
1289,0.19463865014689805
1290,0.155179461504373
1291,0.12180175491295092
1292,0.09412110116009796
1293,0.07160355784640234
1294,0.05362858688575757
1295,0.03954324026075494
1296,0.028705314022771836
1297,0.020514762765937174
1298,0.014433938101099325
1299,0.009998094995538992
1300,0.006818096544701578
1301,0.0045773789648133265
1302,0.003025037522721211
1303,0.00196622393180634
1304,0.0012492148570247411
1305,0.0007433480839549836
1306,0.00028831683282133717
1307,-0.00043610141453899974
1308,-0.0022283465155817756
1309,-0.007051574991142884
1310,-0.01928318868243401
1311,-0.04751921547559532
1312,-0.10631790221494924
1313,-0.21629184596038503
1314,-0.4002296318583026
1315,-0.6736565487613213
1316,-1.0313599916219138
1317,-1.4359680064024258
1318,-1.817142058828424
1319,-2.0862576156202453
1320,-2.1613927729398252
1321,-1.9874000103160525
1322,-1.5355776274896733
1323,-0.781929683842317
1324,0.3146452781080311
1325,1.8004789517665367
1326,3.6633251082400418
1327,5.742663902892144
1328,7.684731336075894
1329,9.011796895845666
1330,9.306956870596531
1331,8.420887145139156
1332,6.568159073774093
1333,4.244073980089165
1334,2.0126329473345623
1335,0.2934701187492783
1336,-0.7449434211024035
1337,-1.1632115483750165
1338,-1.1511498860555842
1339,-0.9204576153542924
1340,-0.635036649020073
1341,-0.38820184349171516
1342,-0.21294642256563995
1343,-0.10549700532213839
1344,-0.04736105948871005
1345,-0.01929716437906378
1346,-0.00713510505649968
1347,-0.0023827628040026826
1348,-0.0006987834555392832
1349,-0.00014770602546949164
1350,3.297374902402441e-05
1351,0.00011219403091782364
1352,0.0001775690148382129
1353,0.00025882956171831403
1354,0.00037071659612961485
1355,0.000526542542216609
1356,0.0007425606643493242
1357,0.0010399338997822923
1358,0.0014463143332206067
1359,0.001997577440594325
1360,0.002739861551187202
1361,0.003731965983939525
1362,0.0050481331495456
1363,0.006781222466366704
1364,0.009046263820143102
1365,0.011984352432365586
1366,0.015766814616139692
1367,0.02059953497649817
1368,0.02672729073372907
1369,0.034437889268550875
1370,0.044065852740885515
1371,0.05599534160132156
1372,0.07066196073919959
1373,0.0885530524321056
1374,0.11020605435582341
1375,0.13620449423256228
1376,0.16717121079493374
1377,0.20375843871124358
1378,0.24663447702650987
1379,0.2964667789808685
1380,0.35390145603003503
1381,0.41953937803349783
1382,0.4939092692915747
1383,0.5774384374628712
1384,0.6704220171726597
1385,0.7729918472096164
1386,0.8850863122788005
1387,1.006422648810882
1388,1.136473320928402
1389,1.274448100572279
1390,1.4192834214920187
1391,1.56964041160911
1392,1.7239127396969625
1393,1.880245045109162
1394,2.036562265912748
1395,2.1906096613589194
1396,2.340002766165938
1397,2.482285949042104
1398,2.6149977120991403
1399,2.7357403980122452
1400,2.8422516027693003
1401,2.932474353610973
1402,3.0046230268766734
1403,3.0572420619061402
1404,3.0892547768081466
1405,3.1
1406,3.0892547768081418
1407,3.0572420619061402
1408,3.0046230268766734
1409,2.932474353610973
1410,2.8422516027693003
1411,2.7357403980122452
1412,2.6149977120991403
1413,2.482285949042104
1414,2.340002766165938
1415,2.1906096613589194
1416,2.036562265912748
1417,1.880245045109162
1418,1.7239127396969625
1419,1.56964041160911
1420,1.4192834214920187
1421,1.274448100572279
1422,1.136473320928402
1423,1.006422648810882
1424,0.8850863122788005
1425,0.7729918472096164
1426,0.6704220171726597
1427,0.5774384374628712
1428,0.4939092692915747
1429,0.41953937803349783
1430,0.35390145603003503
1431,0.2964667789808685
1432,0.24663447702650987
1433,0.20375843871124358
1434,0.16717121079493374
1435,0.13620449423256228
1436,0.11020605435582341
1437,0.0885530524321056
1438,0.07066196073919959
1439,0.05599534160132156
1440,0.044065852740885515
1441,0.034437889268550875
1442,0.02672729073372907
1443,0.02059953497649817
1444,0.015766814616139692
1445,0.011984352432365586
1446,0.009046263820143114
1447,0.006781222466366871
1448,0.005048133149547866
1449,0.003731965983967386
1450,0.002739861551498713
1451,0.0019975774437626607
1452,0.001446314362534405
1453,0.0010399341464977744
1454,0.0007425625532278813
1455,0.0005265556973403861
1456,0.0003707999391012473
1457,0.00025930987641233544
1458,0.00018008706839354416
1459,0.00012420242191964117
1460,8.506710769420433e-05
1461,5.785985426331049e-05
1462,3.9082026079592515e-05
1463,2.6215664584600394e-05
1464,1.746339762238852e-05
1465,1.1552625382617935e-05
1466,7.589562619852005e-06
1467,4.9515029076747215e-06
1468,3.208056578118522e-06
1469,2.0641126632693236e-06
1470,1.3189170341058003e-06
1471,8.369842760824198e-07
1472,5.27614071309315e-07
1473,3.306087564915638e-07
1474,2.0643026413257268e-07
1475,1.295322599746899e-07
1476,8.39954944230626e-08
1477,6.091991897885086e-08
1478,5.7328698746831576e-08
1479,7.666951967242318e-08
1480,1.3142878573473884e-07
1481,2.490063454393548e-07
1482,4.829808149395335e-07
1483,9.334431816868512e-07
1484,1.782492155632503e-06
1485,3.354680280616414e-06
1486,6.217707179033063e-06
1487,1.134661945707159e-05
1488,2.0385905603488086e-05
1489,3.6058838635440016e-05
1490,6.279265894943089e-05
1491,0.00010765161702201076
1492,0.0001816964809961141
1493,0.0003019163716235587
1494,0.0004939022136105889
1495,0.000795443678133218
1496,0.0012612234780058921
1497,0.0019687420068992437
1498,0.003025517839420302
1499,0.004577462308058682
1500,0.00681810969991038
1501,0.00999809688445809
1502,0.014433938347836043
1503,0.02051476279526274
1504,0.028705314025947407
1505,0.03954324026107177
1506,0.05362858688579026
1507,0.07160355784640969
1508,0.094121101160104
1509,0.12180175491295789
1510,0.15517946150438117
1511,0.1946386501469075
1512,0.2403466517037139
1513,0.29218722062252633
1514,0.3497023147611338
1515,0.4120500255944666
1516,0.4779863919318176
1517,0.5458775937413848
1518,0.6137466760713204
1519,0.6793556417901204
1520,0.7403198061588043
1521,0.7942472123261467
1522,0.8388922431235791
1523,0.8723099110287157
1524,0.8929961444342207
1525,0.9
1526,0.8929961444342176
1527,0.8723099110287036
1528,0.8388922431235704
1529,0.7942472123261246
1530,0.7403198061587914
1531,0.6793556417900921
1532,0.6137466760713054
1533,0.5458775937413545
1534,0.4779863919318027
1535,0.412050025594438
1536,0.3497023147611204
1537,0.2921872206225142
1538,0.24034665170370303
1539,0.19463865014689805
1540,0.155179461504373
1541,0.12180175491295092
1542,0.09412110116009796
1543,0.07160355784640234
1544,0.05362858688575757
1545,0.03954324026075494
1546,0.028705314022771836
1547,0.020514762765937174
1548,0.014433938101099325
1549,0.009998094995538992
1550,0.006818096544701578
1551,0.0045773789648133265
1552,0.003025037522721211
1553,0.00196622393180634
1554,0.0012492148570247411
1555,0.0007433480839549836
1556,0.00028831683282133717
1557,-0.00043610141453899974
1558,-0.0022283465155817756
1559,-0.007051574991142884
1560,-0.01928318868243401
1561,-0.04751921547559532
1562,-0.10631790221494924
1563,-0.21629184596038503
1564,-0.4002296318583026
1565,-0.6736565487613213
1566,-1.0313599916219138
1567,-1.4359680064024258
1568,-1.817142058828424
1569,-2.0862576156202453
1570,-2.1613927729398252
1571,-1.9874000103160525
1572,-1.5355776274896733
1573,-0.781929683842317
1574,0.3146452781080311
1575,1.8004789517665367
1576,3.6633251082400418
1577,5.742663902892144
1578,7.684731336075894
1579,9.011796895845666
1580,9.306956870596531
1581,8.420887145139156
1582,6.568159073774093
1583,4.244073980089165
1584,2.0126329473345623
1585,0.2934701187492783
1586,-0.7449434211024035
1587,-1.1632115483750165
1588,-1.1511498860555842
1589,-0.9204576153542924
1590,-0.635036649020073
1591,-0.38820184349171516
1592,-0.21294642256563995
1593,-0.10549700532213839
1594,-0.04736105948871005
1595,-0.01929716437906378
1596,-0.00713510505649968
1597,-0.0023827628040026826
1598,-0.0006987834555392832
1599,-0.00014770602546949164
1600,3.297374902402441e-05
1601,0.00011219403091782364
1602,0.0001775690148382129
1603,0.00025882956171831403
1604,0.00037071659612961485
1605,0.000526542542216609
1606,0.0007425606643493242
1607,0.0010399338997822923
1608,0.0014463143332206067
1609,0.001997577440594325
1610,0.002739861551187202
1611,0.003731965983939525
1612,0.0050481331495456
1613,0.006781222466366704
1614,0.009046263820143102
1615,0.011984352432365586
1616,0.015766814616139692
1617,0.02059953497649817
1618,0.02672729073372907
1619,0.034437889268550875
1620,0.044065852740885515
1621,0.05599534160132156
1622,0.07066196073919959
1623,0.0885530524321056
1624,0.11020605435582341
1625,0.13620449423256228
1626,0.16717121079493374
1627,0.20375843871124358
1628,0.24663447702650987
1629,0.2964667789808685
1630,0.35390145603003503
1631,0.41953937803349783
1632,0.4939092692915747
1633,0.5774384374628712
1634,0.6704220171726597
1635,0.7729918472096164
1636,0.8850863122788005
1637,1.006422648810882
1638,1.136473320928402
1639,1.274448100572279
1640,1.4192834214920187
1641,1.56964041160911
1642,1.7239127396969625
1643,1.880245045109162
1644,2.036562265912748
1645,2.1906096613589194
1646,2.340002766165938
1647,2.482285949042104
1648,2.6149977120991403
1649,2.7357403980122452
1650,2.8422516027693003
1651,2.932474353610973
1652,3.0046230268766734
1653,3.0572420619061402
1654,3.0892547768081466
1655,3.1
1656,3.0892547768081418
1657,3.0572420619061402
1658,3.0046230268766596
1659,2.932474353610973
1660,2.8422516027692786
1661,2.7357403980122452
1662,2.614997712099112
1663,2.482285949042104
1664,2.340002766165905
1665,2.1906096613589194
1666,2.036562265912748
1667,1.880245045109162
1668,1.7239127396969625
1669,1.56964041160911
1670,1.4192834214920187
1671,1.274448100572279
1672,1.136473320928402
1673,1.006422648810882
1674,0.8850863122788005
1675,0.7729918472096164
1676,0.6704220171726597
1677,0.5774384374628712
1678,0.4939092692915747
1679,0.41953937803349783
1680,0.35390145603003503
1681,0.2964667789808685
1682,0.24663447702650987
1683,0.20375843871124358
1684,0.16717121079493374
1685,0.13620449423256228
1686,0.11020605435582341
1687,0.0885530524321056
1688,0.07066196073919959
1689,0.05599534160132156
1690,0.044065852740885515
1691,0.034437889268550875
1692,0.02672729073372907
1693,0.02059953497649817
1694,0.015766814616139692
1695,0.011984352432365586
1696,0.009046263820143114
1697,0.006781222466366871
1698,0.005048133149547866
1699,0.003731965983967386
1700,0.002739861551498713
1701,0.0019975774437626607
1702,0.001446314362534405
1703,0.0010399341464977744
1704,0.0007425625532278813
1705,0.0005265556973403861
1706,0.0003707999391012473
1707,0.00025930987641233544
1708,0.00018008706839354416
1709,0.00012420242191964117
1710,8.506710769420433e-05
1711,5.785985426331049e-05
1712,3.9082026079592515e-05
1713,2.6215664584600394e-05
1714,1.746339762238852e-05
1715,1.1552625382617935e-05
1716,7.589562619852005e-06
1717,4.9515029076747215e-06
1718,3.208056578118522e-06
1719,2.0641126632693236e-06
1720,1.3189170341058003e-06
1721,8.369842760824198e-07
1722,5.27614071309315e-07
1723,3.306087564915638e-07
1724,2.0643026413257268e-07
1725,1.295322599746899e-07
1726,8.39954944230626e-08
1727,6.091991897885086e-08
1728,5.7328698746831576e-08
1729,7.666951967242318e-08
1730,1.3142878573473884e-07
1731,2.490063454393548e-07
1732,4.829808149395335e-07
1733,9.334431816868512e-07
1734,1.782492155632503e-06
1735,3.354680280616414e-06
1736,6.217707179033063e-06
1737,1.134661945707159e-05
1738,2.0385905603488086e-05
1739,3.6058838635440016e-05
1740,6.279265894943089e-05
1741,0.00010765161702201076
1742,0.0001816964809961141
1743,0.0003019163716235587
1744,0.0004939022136105889
1745,0.000795443678133218
1746,0.0012612234780058921
1747,0.0019687420068992437
1748,0.003025517839420302
1749,0.004577462308058682
1750,0.00681810969991038
1751,0.00999809688445809
1752,0.014433938347836043
1753,0.02051476279526274
1754,0.028705314025947407
1755,0.03954324026107177
1756,0.05362858688579026
1757,0.07160355784640969
1758,0.094121101160104
1759,0.12180175491295789
1760,0.15517946150438117
1761,0.1946386501469075
1762,0.2403466517037139
1763,0.29218722062252633
1764,0.3497023147611338
1765,0.4120500255944666
1766,0.4779863919318176
1767,0.5458775937413848
1768,0.6137466760713204
1769,0.6793556417901204
1770,0.7403198061588043
1771,0.7942472123261467
1772,0.8388922431235791
1773,0.8723099110287157
1774,0.8929961444342207
1775,0.9
1776,0.8929961444342176
1777,0.8723099110287036
1778,0.8388922431235704
1779,0.7942472123261246
1780,0.7403198061587914
1781,0.6793556417900921
1782,0.6137466760713054
1783,0.5458775937413545
1784,0.4779863919318027
1785,0.412050025594438
1786,0.3497023147611204
1787,0.29218722062250196
1788,0.24034665170370303
1789,0.19463865014688858
1790,0.155179461504373
1791,0.12180175491294415
1792,0.09412110116009796
1793,0.07160355784640234
1794,0.05362858688575757
1795,0.03954324026075494
1796,0.028705314022771836
1797,0.020514762765937174
1798,0.014433938101099325
1799,0.009998094995538992
1800,0.006818096544701578
1801,0.0045773789648133265
1802,0.003025037522721211
1803,0.00196622393180634
1804,0.0012492148570247411
1805,0.0007433480839549836
1806,0.00028831683282133717
1807,-0.00043610141453899974
1808,-0.0022283465155817756
1809,-0.007051574991142884
1810,-0.01928318868243401
1811,-0.04751921547559532
1812,-0.10631790221494924
1813,-0.21629184596038503
1814,-0.4002296318583026
1815,-0.6736565487613213
1816,-1.0313599916219138
1817,-1.4359680064024258
1818,-1.817142058828424
1819,-2.0862576156202453
1820,-2.1613927729398252
1821,-1.9874000103160525
1822,-1.5355776274896733
1823,-0.781929683842317
1824,0.3146452781080311
1825,1.8004789517665367
1826,3.6633251082400418
1827,5.742663902892144
1828,7.684731336075894
1829,9.011796895845666
1830,9.306956870596531
1831,8.420887145139156
1832,6.568159073774093
1833,4.244073980089165
1834,2.0126329473345623
1835,0.2934701187492783
1836,-0.7449434211024035
1837,-1.1632115483750165
1838,-1.1511498860555842
1839,-0.9204576153542924
1840,-0.635036649020073
1841,-0.38820184349171516
1842,-0.21294642256563995
1843,-0.10549700532213839
1844,-0.04736105948871005
1845,-0.01929716437906378
1846,-0.00713510505649968
1847,-0.0023827628040026826
1848,-0.0006987834555392832
1849,-0.00014770602546949164
1850,3.297374902402441e-05
1851,0.00011219403091782364
1852,0.0001775690148382129
1853,0.00025882956171831403
1854,0.00037071659612961485
1855,0.000526542542216609
1856,0.0007425606643493242
1857,0.0010399338997822923
1858,0.0014463143332206067
1859,0.001997577440594325
1860,0.002739861551187202
1861,0.003731965983939525
1862,0.0050481331495456
1863,0.006781222466366704
1864,0.009046263820143102
1865,0.011984352432365586
1866,0.015766814616139692
1867,0.02059953497649817
1868,0.02672729073372907
1869,0.034437889268550875
1870,0.044065852740885515
1871,0.05599534160132156
1872,0.07066196073919959
1873,0.0885530524321056
1874,0.11020605435582341
1875,0.13620449423256228
1876,0.16717121079493374
1877,0.20375843871124358
1878,0.24663447702650987
1879,0.2964667789808685
1880,0.35390145603003503
1881,0.41953937803349783
1882,0.4939092692915747
1883,0.5774384374628712
1884,0.6704220171726597
1885,0.7729918472096164
1886,0.8850863122788005
1887,1.006422648810882
1888,1.136473320928402
1889,1.274448100572279
1890,1.4192834214920187
1891,1.56964041160911
1892,1.7239127396969625
1893,1.880245045109162
1894,2.036562265912748
1895,2.1906096613589194
1896,2.340002766165938
1897,2.482285949042104
1898,2.6149977120991403
1899,2.7357403980122452
1900,2.8422516027693003
1901,2.932474353610973
1902,3.0046230268766734
1903,3.0572420619061402
1904,3.0892547768081466
1905,3.1
1906,3.0892547768081418
1907,3.0572420619061402
1908,3.0046230268766596
1909,2.932474353610973
1910,2.8422516027692786
1911,2.7357403980122452
1912,2.614997712099112
1913,2.482285949042104
1914,2.340002766165905
1915,2.1906096613589194
1916,2.0365622659127136
1917,1.880245045109162
1918,1.723912739696928
1919,1.56964041160911
1920,1.4192834214920187
1921,1.274448100572279
1922,1.136473320928402
1923,1.006422648810882
1924,0.8850863122788005
1925,0.7729918472096164
1926,0.6704220171726597
1927,0.5774384374628712
1928,0.4939092692915747
1929,0.41953937803349783
1930,0.35390145603003503
1931,0.2964667789808685
1932,0.24663447702650987
1933,0.20375843871124358
1934,0.16717121079493374
1935,0.13620449423256228
1936,0.11020605435582341
1937,0.0885530524321056
1938,0.07066196073919959
1939,0.05599534160132156
1940,0.044065852740885515
1941,0.034437889268550875
1942,0.02672729073372907
1943,0.02059953497649817
1944,0.015766814616139692
1945,0.011984352432365586
1946,0.009046263820143114
1947,0.006781222466366871
1948,0.005048133149547866
1949,0.003731965983967386
1950,0.002739861551498713
1951,0.0019975774437626607
1952,0.001446314362534405
1953,0.0010399341464977744
1954,0.0007425625532278813
1955,0.0005265556973403861
1956,0.0003707999391012473
1957,0.00025930987641233544
1958,0.00018008706839354416
1959,0.00012420242191964117
1960,8.506710769420433e-05
1961,5.785985426331049e-05
1962,3.9082026079592515e-05
1963,2.6215664584600394e-05
1964,1.746339762238852e-05
1965,1.1552625382617935e-05
1966,7.589562619852005e-06
1967,4.9515029076747215e-06
1968,3.208056578118522e-06
1969,2.0641126632693236e-06
1970,1.3189170341058003e-06
1971,8.369842760824198e-07
1972,5.27614071309315e-07
1973,3.306087564915638e-07
1974,2.0643026413257268e-07
1975,1.295322599746899e-07
1976,8.39954944230626e-08
1977,6.091991897885086e-08
1978,5.7328698746831576e-08
1979,7.666951967242318e-08
1980,1.3142878573473884e-07
1981,2.490063454393548e-07
1982,4.829808149395335e-07
1983,9.334431816868512e-07
1984,1.782492155632503e-06
1985,3.354680280616414e-06
1986,6.217707179033063e-06
1987,1.134661945707159e-05
1988,2.0385905603488086e-05
1989,3.6058838635440016e-05
1990,6.279265894943089e-05
1991,0.00010765161702201076
1992,0.0001816964809961141
1993,0.0003019163716235587
1994,0.0004939022136105889
1995,0.000795443678133218
1996,0.0012612234780058921
1997,0.0019687420068992437
1998,0.003025517839420302
1999,0.004577462308058682
2000,0.00681810969991038
2001,0.009998096884457255
2002,0.014433938347837195
2003,0.02051476279526274
2004,0.028705314025947407
2005,0.03954324026106903
2006,0.053628586885793805
2007,0.07160355784640969
2008,0.094121101160104
2009,0.12180175491295109
2010,0.15517946150438924
2011,0.1946386501469075
2012,0.2403466517037139
2013,0.2921872206225142
2014,0.3497023147611471
2015,0.4120500255944666
2016,0.4779863919318176
2017,0.5458775937413696
2018,0.6137466760713354
2019,0.6793556417901204
2020,0.7403198061588043
2021,0.7942472123261357
2022,0.8388922431235878
2023,0.8723099110287157
2024,0.8929961444342207
2025,0.9
2026,0.8929961444342145
2027,0.8723099110287036
2028,0.8388922431235704
2029,0.7942472123261357
2030,0.7403198061587786
2031,0.6793556417900921
2032,0.6137466760713054
2033,0.5458775937413696
2034,0.4779863919317877
2035,0.412050025594438
2036,0.3497023147611204
2037,0.2921872206225142
2038,0.24034665170369213
2039,0.19463865014688858
2040,0.155179461504373
2041,0.12180175491295092
2042,0.0941211011600924
2043,0.07160355784639785
2044,0.05362858688575757
2045,0.03954324026075494
2046,0.028705314022769744
2047,0.020514762765935616
2048,0.014433938101099325
2049,0.009998094995538992
2050,0.006818096544702172
2051,0.004577378964812915
2052,0.003025037522721211
2053,0.00196622393180634
2054,0.0012492148570248717
2055,0.0007433480839548839
2056,0.00028831683282133717
2057,-0.00043610141453899974
2058,-0.0022283465155811463
2059,-0.007051574991144548
2060,-0.01928318868243401
2061,-0.04751921547559532
2062,-0.10631790221493137
2063,-0.21629184596041673
2064,-0.4002296318583026
2065,-0.6736565487613213
2066,-1.031359991621827
2067,-1.4359680064025162
2068,-1.817142058828424
2069,-2.0862576156202453
2070,-2.1613927729398346
2071,-1.98740001031594
2072,-1.535577627489597
2073,-0.7819296838422264
2074,0.31464527810783227
2075,1.800478951766982
2076,3.6633251082400924
2077,5.7426639028921755
2078,7.684731336075532
2079,9.011796895845867
2080,9.306956870596535
2081,8.420887145139158
2082,6.56815907377458
2083,4.24407398008864
2084,2.0126329473345623
2085,0.2934701187492783
2086,-0.744943421102247
2087,-1.1632115483750538
2088,-1.1511498860555842
2089,-0.9204576153542924
2090,-0.6350366490201341
2091,-0.38820184349166786
2092,-0.21294642256563995
2093,-0.10549700532213839
2094,-0.047361059488718986
2095,-0.019297164379059734
2096,-0.00713510505649968
2097,-0.0023827628040026826
2098,-0.0006987834555394878
2099,-0.00014770602546942645
2100,3.297374902402441e-05
2101,0.00011219403091782364
2102,0.00017756901483819727
2103,0.00025882956171833496
2104,0.00037071659612961485
2105,0.000526542542216609
2106,0.0007425606643492674
2107,0.0010399338997823698
2108,0.0014463143332206067
2109,0.001997577440594325
2110,0.0027398615511870124
2111,0.003731965983939777
2112,0.0050481331495456
2113,0.006781222466366704
2114,0.009046263820142529
2115,0.01198435243236632
2116,0.015766814616139692
2117,0.02059953497649817
2118,0.026727290733727548
2119,0.03443788926855278
2120,0.044065852740885515
2121,0.05599534160132156
2122,0.070661960739196
2123,0.08855305243211
2124,0.11020605435582341
2125,0.13620449423256228
2126,0.16717121079492625
2127,0.20375843871125235
2128,0.24663447702650987
2129,0.2964667789808685
2130,0.3539014560300214
2131,0.41953937803351343
2132,0.4939092692915747
2133,0.5774384374628712
2134,0.670422017172638
2135,0.7729918472096402
2136,0.8850863122788005
2137,1.006422648810882
2138,1.1364733209283717
2139,1.2744481005723103
2140,1.4192834214920187
2141,1.56964041160911
2142,1.723912739696928
2143,1.8802450451091968
2144,2.036562265912748
2145,2.1906096613589194
2146,2.340002766165905
2147,2.4822859490421347
2148,2.6149977120991403
2149,2.7357403980122452
2150,2.8422516027692786
2151,2.9324743536109907
2152,3.0046230268766734
2153,3.0572420619061402
2154,3.0892547768081418
2155,3.1
2156,3.089254776808137
2157,3.057242061906131
2158,3.0046230268766596
2159,2.9324743536109366
2160,2.8422516027692564
2161,2.73574039801222
2162,2.614997712099112
2163,2.482285949042043
2164,2.340002766165873
2165,2.1906096613588852
2166,2.0365622659127136
2167,1.8802450451090924
2168,1.7239127396968936
2169,1.5696404116090763
2170,1.4192834214919858
2171,1.2744481005722164
2172,1.136473320928342
2173,1.0064226488108543
2174,0.8850863122787743
2175,0.7729918472095687
2176,0.6704220171726163
2177,0.5774384374628515
2178,0.4939092692915573
2179,0.41953937803349783
2180,0.35390145603000767
2181,0.29646677898085666
2182,0.2466344770264996
2183,0.20375843871124358
2184,0.16717121079491884
2185,0.13620449423255593
2186,0.11020605435581812
2187,0.0885530524321056
2188,0.07066196073919241
2189,0.05599534160131862
2190,0.04406585274088313
2191,0.034437889268550875
2192,0.02672729073372601
2193,0.020599534976496945
2194,0.015766814616138755
2195,0.011984352432365586
2196,0.009046263820141964
2197,0.0067812224663664315
2198,0.005048133149547534
2199,0.003731965983967386
2200,0.0027398615514983337
2201,0.001997577443762519
2202,0.001446314362534301
2203,0.0010399341464977744
2204,0.0007425625532277691
2205,0.0005265556973403459
2206,0.0003707999391012183
2207,0.00025930987641233544
2208,0.00018008706839351475
2209,0.00012420242191963079
2210,8.506710769419707e-05
2211,5.785985426331049e-05
2212,3.9082026079585644e-05
2213,2.6215664584598022e-05
2214,1.746339762238694e-05
2215,1.1552625382617935e-05
2216,7.589562619850575e-06
2217,4.951502907674238e-06
2218,3.2080565781182145e-06
2219,2.0641126632693236e-06
2220,1.3189170341055333e-06
2221,8.369842760823335e-07
2222,5.276140713092607e-07
2223,3.306087564915637e-07
2224,2.0643026413252999e-07
2225,1.2953225997467595e-07
2226,8.399549442305434e-08
2227,6.091991897884857e-08
2228,5.73286987468299e-08
2229,7.666951967242122e-08
2230,1.3142878573473768e-07
2231,2.4900634543931767e-07
2232,4.829808149396032e-07
2233,9.334431816868509e-07
2234,1.7824921556325027e-06
2235,3.354680280615949e-06
2236,6.217707179033913e-06
2237,1.134661945707159e-05
2238,2.0385905603488086e-05
2239,3.605883863543554e-05
2240,6.279265894943837e-05
2241,0.00010765161702201076
2242,0.0001816964809961141
2243,0.00030191637162352465
2244,0.000493902213610642
2245,0.000795443678133218
2246,0.0012612234780058921
2247,0.001968742006899053
2248,0.0030255178394205844
2249,0.004577462308058682
2250,0.00681810969991038
2251,0.009998096884457255
2252,0.014433938347837195
2253,0.02051476279526274
2254,0.028705314025947407
2255,0.03954324026106903
2256,0.053628586885793805
2257,0.07160355784640969
2258,0.094121101160104
2259,0.12180175491295109
2260,0.15517946150438924
2261,0.1946386501469075
2262,0.2403466517037139
2263,0.2921872206225142
2264,0.3497023147611471
2265,0.4120500255944666
2266,0.4779863919318176
2267,0.5458775937413696
2268,0.6137466760713354
2269,0.6793556417901204
2270,0.7403198061588043
2271,0.7942472123261357
2272,0.8388922431235878
2273,0.8723099110287157
2274,0.8929961444342207
2275,0.9
2276,0.8929961444342145
2277,0.8723099110287036
2278,0.8388922431235704
2279,0.7942472123261357
2280,0.7403198061587786
2281,0.6793556417900921
2282,0.6137466760713054
2283,0.5458775937413696
2284,0.4779863919317877
2285,0.412050025594438
2286,0.3497023147611204
2287,0.2921872206225142
2288,0.24034665170369213
2289,0.19463865014688858
2290,0.155179461504373
2291,0.12180175491295092
2292,0.0941211011600924
2293,0.07160355784639785
2294,0.05362858688575757
2295,0.03954324026075494
2296,0.028705314022769744
2297,0.020514762765935616
2298,0.014433938101099325
2299,0.009998094995538992
2300,0.006818096544700985
2301,0.004577378964812915
2302,0.0030250375227212105
2303,0.001966223931806339
2304,0.0012492148570246065
2305,0.0007433480839548674
2306,0.00028831683282127694
2307,-0.0004361014145392011
2308,-0.0022283465155817548
2309,-0.007051574991146208
2310,-0.019283188682438078
2311,-0.047519215475604316
2312,-0.10631790221494926
2313,-0.21629184596044865
2314,-0.40022963185835303
2315,-0.673656548761392
2316,-1.0313599916219138
2317,-1.4359680064026068
2318,-1.8171420588285008
2319,-2.086257615620289
2320,-2.1613927729398346
2321,-1.98740001031594
2322,-1.535577627489597
2323,-0.7819296838422264
2324,0.31464527810783227
2325,1.800478951766982
2326,3.6633251082400924
2327,5.7426639028921755
2328,7.684731336075532
2329,9.011796895845867
2330,9.306956870596535
2331,8.420887145139158
2332,6.56815907377458
2333,4.24407398008864
2334,2.0126329473345623
2335,0.2934701187492783
2336,-0.744943421102247
2337,-1.1632115483750538
2338,-1.1511498860555842
2339,-0.9204576153542924
2340,-0.6350366490201341
2341,-0.38820184349166786
2342,-0.21294642256563995
2343,-0.10549700532213839
2344,-0.047361059488718986
2345,-0.01929716437905973
2346,-0.007135105056499678
2347,-0.0023827628040026805
2348,-0.0006987834555394844
2349,-0.00014770602546942144
2350,3.2973749024031646e-05
2351,0.000112194030917834
2352,0.00017756901483821196
2353,0.00025882956171835567
2354,0.00037071659612964445
2355,0.0005265425422166501
2356,0.0007425606643493242
2357,0.0010399338997824465
2358,0.0014463143332207105
2359,0.0019975774405944654
2360,0.002739861551187202
2361,0.0037319659839400296
2362,0.005048133149545936
2363,0.006781222466367144
2364,0.009046263820143102
2365,0.011984352432367066
2366,0.015766814616140646
2367,0.020599534976499377
2368,0.02672729073372907
2369,0.0344378892685547
2370,0.0440658527408879
2371,0.055995341601324536
2372,0.07066196073919959
2373,0.08855305243211431
2374,0.11020605435582868
2375,0.13620449423256856
2376,0.16717121079493374
2377,0.20375843871126112
2378,0.24663447702652008
2379,0.29646677898088036
2380,0.35390145603003503
2381,0.4195393780335289
2382,0.49390926929159223
2383,0.5774384374628906
2384,0.6704220171726597
2385,0.7729918472096641
2386,0.8850863122788263
2387,1.00642264881091
2388,1.136473320928402
2389,1.274448100572342
2390,1.4192834214920516
2391,1.5696404116091442
2392,1.7239127396969625
2393,1.8802450451092314
2394,2.0365622659127824
2395,2.190609661358953
2396,2.340002766165938
2397,2.4822859490421654
2398,2.6149977120991688
2399,2.7357403980122705
2400,2.8422516027693003
2401,2.932474353611009
2402,3.0046230268766876
2403,3.0572420619061496
2404,3.0892547768081466
2405,3.1
2406,3.089254776808137
2407,3.057242061906131
2408,3.0046230268766596
2409,2.9324743536109366
2410,2.8422516027692564
2411,2.73574039801222
2412,2.614997712099112
2413,2.482285949042043
2414,2.340002766165873
2415,2.1906096613588852
2416,2.0365622659127136
2417,1.8802450451090924
2418,1.7239127396968936
2419,1.5696404116090763
2420,1.4192834214919858
2421,1.2744481005722164
2422,1.136473320928342
2423,1.0064226488108543
2424,0.8850863122787743
2425,0.7729918472095687
2426,0.6704220171726163
2427,0.5774384374628515
2428,0.4939092692915573
2429,0.4195393780334668
2430,0.35390145603000767
2431,0.29646677898085666
2432,0.2466344770264996
2433,0.20375843871124358
2434,0.16717121079491884
2435,0.13620449423255593
2436,0.11020605435581812
2437,0.0885530524321056
2438,0.07066196073919241
2439,0.05599534160131862
2440,0.04406585274088313
2441,0.034437889268550875
2442,0.02672729073372601
2443,0.020599534976496945
2444,0.015766814616138755
2445,0.011984352432365586
2446,0.009046263820141964
2447,0.0067812224663664315
2448,0.005048133149547534
2449,0.003731965983967386
2450,0.0027398615514983337
2451,0.0019975774437625184
2452,0.0014463143625343003
2453,0.001039934146497772
2454,0.0007425625532277621
2455,0.0005265556973403245
2456,0.00037079993910115513
2457,0.00025930987641215123
2458,0.00018008706839298583
2459,0.00012420242191813572
2460,8.50671076900367e-05
2461,5.785985425191274e-05
2462,3.9082026048844454e-05
2463,2.6215664502970548e-05
2464,1.74633974090008e-05
2465,1.1552624833443634e-05
2466,7.589561228398166e-06
2467,4.951499436785782e-06
2468,3.20804805443883e-06
2469,2.0640920556557127e-06
2470,1.3188679837173374e-06
2471,8.368693360424274e-07
2472,5.27348907415915e-07
2473,3.300065137433474e-07
2474,2.050836507685901e-07
2475,1.2656791727540007e-07
2476,7.757116136442658e-08
2477,4.721293720860764e-08
2478,2.8536835493761683e-08
2479,1.712910493313431e-08
2480,1.0210513741947907e-08
2481,6.044280136653223e-09
2482,3.553248988193578e-09
2483,2.074391688300438e-09
2484,1.2026519292991792e-09
2485,6.924257452229545e-10
2486,3.959045818988883e-10
2487,2.2479772664904743e-10
2488,1.2675858076596267e-10
2489,7.098178021500912e-11
2490,3.947303070935445e-11
2491,2.1799077924602535e-11
2492,1.1955282458254785e-11
2493,6.5112688074696826e-12
2494,3.5217252775387444e-12
2495,1.8916003700572876e-12
2496,1.008991185238771e-12
2497,5.344774911009821e-13
2498,2.8116129448999694e-13
2499,1.468810316849028e-13
